# HAWAII HYBRID v0.1
# Saved on 2025-08-20 01:35:13
# TEMPERATURE: 1000.00
# AVERAGE OVER 499999999.00 TRAJECTORIES
0.0000000000 0.0000000000e+00
0.0526046669 1.5515804180e-13
0.1052093337 6.2060832569e-13
0.1578140006 1.3963151337e-12
0.2104186675 2.4822429936e-12
0.2630233343 3.8783560415e-12
0.3156280012 5.5846195807e-12
0.3682326681 7.6009953405e-12
0.4208373349 9.9274454964e-12
0.4734420018 1.2563931333e-11
0.5260466687 1.5510417833e-11
0.5786513355 1.8766866978e-11
0.6312560024 2.2333261170e-11
0.6838606693 2.6209594833e-11
0.7364653361 3.0395802865e-11
0.7890700030 3.4891827079e-11
0.8416746698 3.9697624777e-11
0.8942793367 4.4813212980e-11
0.9468840036 5.0238494585e-11
0.9994886704 5.5973376508e-11
1.0520933373 6.2017947441e-11
1.1046980042 6.8372093739e-11
1.1573026710 7.5035772524e-11
1.2099073379 8.2008841582e-11
1.2625120048 8.9291249375e-11
1.3151166716 9.6883457004e-11
1.3677213385 1.0478520560e-10
1.4203260054 1.1299590379e-10
1.4729306722 1.2151527957e-10
1.5255353391 1.3034446850e-10
1.5781400060 1.3948387430e-10
1.6307446728 1.4893270689e-10
1.6833493397 1.5869179552e-10
1.7359540066 1.6875834104e-10
1.7885586734 1.7913216881e-10
1.8411633403 1.8981562236e-10
1.8937680072 2.0080745408e-10
1.9463726740 2.1210835514e-10
1.9989773409 2.2372095668e-10
2.0515820078 2.3564403138e-10
2.1041866746 2.4787356742e-10
2.1567913415 2.6041253424e-10
2.2093960084 2.7325952115e-10
2.2620006752 2.8641883974e-10
2.3146053421 2.9989060836e-10
2.3672100089 3.1366463002e-10
2.4198146758 3.2774469665e-10
2.4724193427 3.4214149260e-10
2.5250240095 3.5685272604e-10
2.5776286764 3.7187086786e-10
2.6302333433 3.8718943402e-10
2.6828380101 4.0279387142e-10
2.7354426770 4.1871202063e-10
2.7880473439 4.3496577576e-10
2.8406520107 4.5152959309e-10
2.8932566776 4.6838369431e-10
2.9458613445 4.8553460636e-10
2.9984660113 5.0300788260e-10
3.0510706782 5.2080564745e-10
3.1036753451 5.3890348184e-10
3.1562800119 5.5730592353e-10
3.2088846788 5.7601393910e-10
3.2614893457 5.9504537950e-10
3.3140940125 6.1440117551e-10
3.3666986794 6.3402282713e-10
3.4193033463 6.5395935109e-10
3.4719080131 6.7424389204e-10
3.5245126800 6.9480765273e-10
3.5771173469 7.1562582450e-10
3.6297220137 7.3678461789e-10
3.6823266806 7.5833432678e-10
3.7349313475 7.8016915107e-10
3.7875360143 8.0224299440e-10
3.8401406812 8.2457507656e-10
3.8927453480 8.4725126899e-10
3.9453500149 8.7032605534e-10
3.9979546818 8.9368224792e-10
4.0505593486 9.1731575773e-10
4.1031640155 9.4124071666e-10
4.1557686824 9.6544144170e-10
4.2083733492 9.9000972261e-10
4.2609780161 1.0148936560e-09
4.3135826830 1.0401298138e-09
4.3661873498 1.0656936357e-09
4.4187920167 1.0913910976e-09
4.4713966836 1.1174355440e-09
4.5240013504 1.1438876123e-09
4.5766060173 1.1706044472e-09
4.6292106842 1.1976796452e-09
4.6818153510 1.2250241663e-09
4.7344200179 1.2526295156e-09
4.7870246848 1.2805727639e-09
4.8396293516 1.3088335171e-09
4.8922340185 1.3375510572e-09
4.9448386854 1.3665581918e-09
4.9974433522 1.3957396821e-09
5.0500480191 1.4251566761e-09
5.1026526860 1.4548029545e-09
5.1552573528 1.4848056852e-09
5.2078620197 1.5152615094e-09
5.2604666866 1.5461211474e-09
5.3130713534 1.5771004699e-09
5.3656760203 1.6083572775e-09
5.4182806872 1.6400202917e-09
5.4708853540 1.6719405784e-09
5.5234900209 1.7041464057e-09
5.5760946877 1.7365208654e-09
5.6286993546 1.7691408396e-09
5.6813040215 1.8021382579e-09
5.7339086883 1.8355439329e-09
5.7865133552 1.8693612937e-09
5.8391180221 1.9033611447e-09
5.8917226889 1.9375909569e-09
5.9443273558 1.9721891781e-09
5.9969320227 2.0070432705e-09
6.0495366895 2.0422474842e-09
6.1021413564 2.0778109791e-09
6.1547460233 2.1136359360e-09
6.2073506901 2.1497522730e-09
6.2599553570 2.1861545877e-09
6.3125600239 2.2228549968e-09
6.3651646907 2.2598616236e-09
6.4177693576 2.2971563912e-09
6.4703740245 2.3347395492e-09
6.5229786913 2.3726475857e-09
6.5755833582 2.4109262531e-09
6.6281880251 2.4495272673e-09
6.6807926919 2.4884297050e-09
6.7333973588 2.5276702268e-09
6.7860020257 2.5671514239e-09
6.8386066925 2.6068943433e-09
6.8912113594 2.6470289259e-09
6.9438160263 2.6874787421e-09
6.9964206931 2.7282357364e-09
7.0490253600 2.7693177924e-09
7.1016300268 2.8106351993e-09
7.1542346937 2.8522876696e-09
7.2068393606 2.8942996567e-09
7.2594440274 2.9364987116e-09
7.3120486943 2.9789578251e-09
7.3646533612 3.0217965525e-09
7.4172580280 3.0649902228e-09
7.4698626949 3.1084632958e-09
7.5224673618 3.1521844318e-09
7.5750720286 3.1962616990e-09
7.6276766955 3.2406844974e-09
7.6802813624 3.2853666599e-09
7.7328860292 3.3302946323e-09
7.7854906961 3.3756175091e-09
7.8380953630 3.4213463387e-09
7.8907000298 3.4671898401e-09
7.9433046967 3.5132544260e-09
7.9959093636 3.5597341125e-09
8.0485140304 3.6064852109e-09
8.1011186973 3.6535962780e-09
8.1537233642 3.7010869832e-09
8.2063280310 3.7487910438e-09
8.2589326979 3.7967312493e-09
8.3115373648 3.8449929391e-09
8.3641420316 3.8936490441e-09
8.4167466985 3.9426156265e-09
8.4693513654 3.9917991105e-09
8.5219560322 4.0412284695e-09
8.5745606991 4.0909644330e-09
8.6271653659 4.1411350128e-09
8.6797700328 4.1916271167e-09
8.7323746997 4.2423269071e-09
8.7849793665 4.2934334863e-09
8.8375840334 4.3448043108e-09
8.8901887003 4.3963313777e-09
8.9427933671 4.4482399173e-09
8.9953980340 4.5005129924e-09
9.0480027009 4.5530314147e-09
9.1006073677 4.6057904431e-09
9.1532120346 4.6589323236e-09
9.2058167015 4.7123828431e-09
9.2584213683 4.7660678742e-09
9.3110260352 4.8201793418e-09
9.3636307021 4.8745626852e-09
9.4162353689 4.9292076120e-09
9.4688400358 4.9841666598e-09
9.5214447027 5.0394029108e-09
9.5740493695 5.0949892586e-09
9.6266540364 5.1507880733e-09
9.6792587033 5.2067761352e-09
9.7318633701 5.2631954055e-09
9.7844680370 5.3200571717e-09
9.8370727039 5.3770997690e-09
9.8896773707 5.4343512485e-09
9.9422820376 5.4918901422e-09
9.9948867045 5.5498042252e-09
10.0474913713 5.6081039347e-09
10.1000960382 5.6667135747e-09
10.1527007050 5.7255405112e-09
10.2053053719 5.7845871369e-09
10.2579100388 5.8441136084e-09
10.3105147056 5.9041617487e-09
10.3631193725 5.9642629379e-09
10.4157240394 6.0244050845e-09
10.4683287062 6.0849406653e-09
10.5209333731 6.1459451730e-09
10.5735380400 6.2072912141e-09
10.6261427068 6.2686122638e-09
10.6787473737 6.3302289304e-09
10.7313520406 6.3924530295e-09
10.7839567074 6.4548946535e-09
10.8365613743 6.5174027812e-09
10.8891660412 6.5803781299e-09
10.9417707080 6.6439371396e-09
10.9943753749 6.7076629781e-09
11.0469800418 6.7715551718e-09
11.0995847086 6.8359028036e-09
11.1521893755 6.9004966468e-09
11.2047940424 6.9651457643e-09
11.2573987092 7.0301320969e-09
11.3100033761 7.0956325198e-09
11.3626080430 7.1614491680e-09
11.4152127098 7.2274731679e-09
11.4678173767 7.2937423100e-09
11.5204220436 7.3602022635e-09
11.5730267104 7.4270654293e-09
11.6256313773 7.4943760079e-09
11.6782360441 7.5618428318e-09
11.7308407110 7.6295752817e-09
11.7834453779 7.6975625503e-09
11.8360500447 7.7659528227e-09
11.8886547116 7.8349927160e-09
11.9412593785 7.9039695583e-09
11.9938640453 7.9728493321e-09
12.0464687122 8.0421825542e-09
12.0990733791 8.1119825468e-09
12.1516780459 8.1824544623e-09
12.2042827128 8.2531381841e-09
12.2568873797 8.3235951851e-09
12.3094920465 8.3946334965e-09
12.3620967134 8.4663931339e-09
12.4147013803 8.5382027877e-09
12.4673060471 8.6101355754e-09
12.5199107140 8.6821150284e-09
12.5725153809 8.7543636014e-09
12.6251200477 8.8273862693e-09
12.6777247146 8.9005699619e-09
12.7303293815 8.9737528160e-09
12.7829340483 9.0473976899e-09
12.8355387152 9.1214983646e-09
12.8881433821 9.1959819027e-09
12.9407480489 9.2706117792e-09
12.9933527158 9.3451292121e-09
13.0459573827 9.4201777037e-09
13.0985620495 9.4960034376e-09
13.1511667164 9.5719573105e-09
13.2037713832 9.6478645492e-09
13.2563760501 9.7240893292e-09
13.3089807170 9.8007509313e-09
13.3615853838 9.8778674995e-09
13.4141900507 9.9553535123e-09
13.4667947176 1.0032993052e-08
13.5193993844 1.0110784019e-08
13.5720040513 1.0188669598e-08
13.6246087182 1.0266811318e-08
13.6772133850 1.0345340364e-08
13.7298180519 1.0424424896e-08
13.7824227188 1.0503922664e-08
13.8350273856 1.0583765586e-08
13.8876320525 1.0663911281e-08
13.9402367194 1.0743927640e-08
13.9928413862 1.0824206225e-08
14.0454460531 1.0904942298e-08
14.0980507200 1.0985894762e-08
14.1506553868 1.1067390317e-08
14.2032600537 1.1149226436e-08
14.2558647206 1.1230866947e-08
14.3084693874 1.1312874043e-08
14.3610740543 1.1395445415e-08
14.4136787212 1.1478167413e-08
14.4662833880 1.1561332086e-08
14.5188880549 1.1644927192e-08
14.5714927218 1.1728718891e-08
14.6240973886 1.1812731456e-08
14.6767020555 1.1896821801e-08
14.7293067224 1.1981228805e-08
14.7819113892 1.2066419170e-08
14.8345160561 1.2151926113e-08
14.8871207229 1.2237410084e-08
14.9397253898 1.2323215196e-08
14.9923300567 1.2409048242e-08
15.0449347235 1.2494837746e-08
15.0975393904 1.2581507268e-08
15.1501440573 1.2668664236e-08
15.2027487241 1.2755736161e-08
15.2553533910 1.2843561912e-08
15.3079580579 1.2931381499e-08
15.3605627247 1.3018858387e-08
15.4131673916 1.3107232855e-08
15.4657720585 1.3196328795e-08
15.5183767253 1.3285267069e-08
15.5709813922 1.3374208098e-08
15.6235860591 1.3463706195e-08
15.6761907259 1.3553529112e-08
15.7287953928 1.3643531361e-08
15.7814000597 1.3733926347e-08
15.8340047265 1.3824716026e-08
15.8866093934 1.3915854140e-08
15.9392140603 1.4007257199e-08
15.9918187271 1.4098752103e-08
16.0444233940 1.4190636899e-08
16.0970280609 1.4282748790e-08
16.1496327277 1.4374591610e-08
16.2022373946 1.4467001614e-08
16.2548420615 1.4560326890e-08
16.3074467283 1.4653856435e-08
16.3600513952 1.4747457694e-08
16.4126560620 1.4841374299e-08
16.4652607289 1.4935722518e-08
16.5178653958 1.5030298691e-08
16.5704700626 1.5124598081e-08
16.6230747295 1.5219287894e-08
16.6756793964 1.5315115538e-08
16.7282840632 1.5410915210e-08
16.7808887301 1.5506904716e-08
16.8334933970 1.5603470340e-08
16.8860980638 1.5699621995e-08
16.9387027307 1.5796047319e-08
16.9913073976 1.5893110080e-08
17.0439120644 1.5990288775e-08
17.0965167313 1.6087637781e-08
17.1491213982 1.6185317524e-08
17.2017260650 1.6283578967e-08
17.2543307319 1.6382387623e-08
17.3069353988 1.6481351158e-08
17.3595400656 1.6580312117e-08
17.4121447325 1.6679758194e-08
17.4647493994 1.6779716511e-08
17.5173540662 1.6879147097e-08
17.5699587331 1.6978725692e-08
17.6225634000 1.7079476121e-08
17.6751680668 1.7180350924e-08
17.7277727337 1.7281474919e-08
17.7803774006 1.7383060332e-08
17.8329820674 1.7484779259e-08
17.8855867343 1.7586765416e-08
17.9381914011 1.7688622162e-08
17.9907960680 1.7790766794e-08
18.0434007349 1.7893885983e-08
18.0960054017 1.7997146771e-08
18.1486100686 1.8099992335e-08
18.2012147355 1.8203539936e-08
18.2538194023 1.8307943558e-08
18.3064240692 1.8412467422e-08
18.3590287361 1.8516547013e-08
18.4116334029 1.8620765280e-08
18.4642380698 1.8725847404e-08
18.5168427367 1.8830993982e-08
18.5694474035 1.8936647675e-08
18.6220520704 1.9042833256e-08
18.6746567373 1.9148524854e-08
18.7272614041 1.9254616209e-08
18.7798660710 1.9362235785e-08
18.8324707379 1.9470126225e-08
18.8850754047 1.9576774666e-08
18.9376800716 1.9683922495e-08
18.9902847385 1.9792158836e-08
19.0428894053 1.9900301607e-08
19.0954940722 2.0008816492e-08
19.1480987391 2.0117502435e-08
19.2007034059 2.0226223062e-08
19.2533080728 2.0335612501e-08
19.3059127397 2.0445692506e-08
19.3585174065 2.0555670206e-08
19.4111220734 2.0665094724e-08
19.4637267402 2.0774965948e-08
19.5163314071 2.0886144715e-08
19.5689360740 2.0997529790e-08
19.6215407408 2.1108538069e-08
19.6741454077 2.1219890469e-08
19.7267500746 2.1332116071e-08
19.7793547414 2.1444746574e-08
19.8319594083 2.1556654456e-08
19.8845640752 2.1668541051e-08
19.9371687420 2.1781016346e-08
19.9897734089 2.1894742131e-08
20.0423780758 2.2008859408e-08
20.0949827426 2.2121940153e-08
20.1475874095 2.2235761671e-08
20.2001920764 2.2350396382e-08
20.2527967432 2.2465042033e-08
20.3054014101 2.2580483690e-08
20.3580060770 2.2696323962e-08
20.4106107438 2.2811579007e-08
20.4632154107 2.2927410223e-08
20.5158200776 2.3043895698e-08
20.5684247444 2.3159755111e-08
20.6210294113 2.3275992057e-08
20.6736340782 2.3393006054e-08
20.7262387450 2.3509984700e-08
20.7788434119 2.3627080112e-08
20.8314480788 2.3744745240e-08
20.8840527456 2.3862862918e-08
20.9366574125 2.3981411851e-08
20.9892620793 2.4100254955e-08
21.0418667462 2.4219212628e-08
21.0944714131 2.4338326108e-08
21.1470760799 2.4457817727e-08
21.1996807468 2.4577803918e-08
21.2522854137 2.4697579213e-08
21.3048900805 2.4817316214e-08
21.3574947474 2.4938162933e-08
21.4100994143 2.5059357928e-08
21.4627040811 2.5179981654e-08
21.5153087480 2.5301030546e-08
21.5679134149 2.5422502496e-08
21.6205180817 2.5544219713e-08
21.6731227486 2.5666559041e-08
21.7257274155 2.5789145094e-08
21.7783320823 2.5911440856e-08
21.8309367492 2.6034034364e-08
21.8835414161 2.6157668473e-08
21.9361460829 2.6281395769e-08
21.9887507498 2.6405724780e-08
22.0413554167 2.6530489462e-08
22.0939600835 2.6654636089e-08
22.1465647504 2.6778726756e-08
22.1991694173 2.6902985552e-08
22.2517740841 2.7028272785e-08
22.3043787510 2.7154673631e-08
22.3569834179 2.7280880395e-08
22.4095880847 2.7406618552e-08
22.4621927516 2.7532811307e-08
22.5147974184 2.7658956323e-08
22.5674020853 2.7785057108e-08
22.6200067522 2.7912023342e-08
22.6726114190 2.8039397845e-08
22.7252160859 2.8167850017e-08
22.7778207528 2.8296115069e-08
22.8304254196 2.8423372965e-08
22.8830300865 2.8551484739e-08
22.9356347534 2.8680265400e-08
22.9882394202 2.8809449632e-08
23.0408440871 2.8939240358e-08
23.0934487540 2.9069567764e-08
23.1460534208 2.9199166089e-08
23.1986580877 2.9329044871e-08
23.2512627546 2.9460353211e-08
23.3038674214 2.9590763781e-08
23.3564720883 2.9720974864e-08
23.4090767552 2.9852417063e-08
23.4616814220 2.9983879825e-08
23.5142860889 3.0115219644e-08
23.5668907558 3.0247337359e-08
23.6194954226 3.0379614906e-08
23.6721000895 3.0512358069e-08
23.7247047564 3.0645709763e-08
23.7773094232 3.0779167396e-08
23.8299140901 3.0912726971e-08
23.8825187570 3.1045908525e-08
23.9351234238 3.1179226758e-08
23.9877280907 3.1314154271e-08
24.0403327575 3.1449645240e-08
24.0929374244 3.1583949563e-08
24.1455420913 3.1718509563e-08
24.1981467581 3.1853381945e-08
24.2507514250 3.1988924087e-08
24.3033560919 3.2125398384e-08
24.3559607587 3.2262178213e-08
24.4085654256 3.2398849472e-08
24.4611700925 3.2535227572e-08
24.5137747593 3.2672027829e-08
24.5663794262 3.2809047575e-08
24.6189840931 3.2946564599e-08
24.6715887599 3.3083748198e-08
24.7241934268 3.3220848434e-08
24.7767980937 3.3359744642e-08
24.8294027605 3.3499289751e-08
24.8820074274 3.3637732922e-08
24.9346120943 3.3776475867e-08
24.9872167611 3.3915917693e-08
25.0398214280 3.4054781224e-08
25.0924260949 3.4194002161e-08
25.1450307617 3.4334875362e-08
25.1976354286 3.4475622068e-08
25.2502400955 3.4616134590e-08
25.3028447623 3.4757832140e-08
25.3554494292 3.4899083349e-08
25.4080540961 3.5040434915e-08
25.4606587629 3.5182362160e-08
25.5132634298 3.5324000435e-08
25.5658680967 3.5466542921e-08
25.6184727635 3.5610081960e-08
25.6710774304 3.5753033000e-08
25.7236820972 3.5895517185e-08
25.7762867641 3.6039211696e-08
25.8288914310 3.6183032638e-08
25.8814960978 3.6326173236e-08
25.9341007647 3.6470259158e-08
25.9867054316 3.6615329490e-08
26.0393100984 3.6760011298e-08
26.0919147653 3.6904083507e-08
26.1445194322 3.7048938271e-08
26.1971240990 3.7194953061e-08
26.2497287659 3.7341302089e-08
26.3023334328 3.7487504468e-08
26.3549380996 3.7634326448e-08
26.4075427665 3.7780873531e-08
26.4601474334 3.7927030213e-08
26.5127521002 3.8074023511e-08
26.5653567671 3.8221299100e-08
26.6179614340 3.8368323392e-08
26.6705661008 3.8515772771e-08
26.7231707677 3.8664978003e-08
26.7757754346 3.8814419222e-08
26.8283801014 3.8962580226e-08
26.8809847683 3.9110957821e-08
26.9335894352 3.9260649249e-08
26.9861941020 3.9410142071e-08
27.0387987689 3.9559276714e-08
27.0914034358 3.9709315324e-08
27.1440081026 3.9859551921e-08
27.1966127695 4.0010076546e-08
27.2492174363 4.0160850951e-08
27.3018221032 4.0312393120e-08
27.3544267701 4.0465023136e-08
27.4070314369 4.0616367303e-08
27.4596361038 4.0767136191e-08
27.5122407707 4.0918958190e-08
27.5648454375 4.1071358503e-08
27.6174501044 4.1224093173e-08
27.6700547713 4.1377127872e-08
27.7226594381 4.1529550141e-08
27.7752641050 4.1682194408e-08
27.8278687719 4.1835695342e-08
27.8804734387 4.1989175394e-08
27.9330781056 4.2143432285e-08
27.9856827725 4.2298418004e-08
28.0382874393 4.2453781802e-08
28.0908921062 4.2608432453e-08
28.1434967731 4.2763578968e-08
28.1961014399 4.2920585924e-08
28.2487061068 4.3076447066e-08
28.3013107737 4.3231484790e-08
28.3539154405 4.3388047932e-08
28.4065201074 4.3545016270e-08
28.4591247743 4.3702391497e-08
28.5117294411 4.3859771318e-08
28.5643341080 4.4016003130e-08
28.6169387749 4.4173125573e-08
28.6695434417 4.4331267933e-08
28.7221481086 4.4489123775e-08
28.7747527754 4.4647706920e-08
28.8273574423 4.4806610768e-08
28.8799621092 4.4964955597e-08
28.9325667760 4.5123994499e-08
28.9851714429 4.5283952879e-08
29.0377761098 4.5444174650e-08
29.0903807766 4.5604815181e-08
29.1429854435 4.5764917712e-08
29.1955901104 4.5923994489e-08
29.2481947772 4.6084460690e-08
29.3007994441 4.6246091927e-08
29.3534041110 4.6406932994e-08
29.4060087778 4.6568137081e-08
29.4586134447 4.6730640579e-08
29.5112181116 4.6892889396e-08
29.5638227784 4.7054162889e-08
29.6164274453 4.7215929529e-08
29.6690321122 4.7378025108e-08
29.7216367790 4.7540619975e-08
29.7742414459 4.7704799623e-08
29.8268461128 4.7868570522e-08
29.8794507796 4.8031186965e-08
29.9320554465 4.8195206673e-08
29.9846601134 4.8360442192e-08
30.0372647802 4.8525207981e-08
30.0898694471 4.8690392010e-08
30.1424741140 4.8855016237e-08
30.1950787808 4.9019263760e-08
30.2476834477 4.9185686543e-08
30.3002881145 4.9352356454e-08
30.3528927814 4.9517581956e-08
30.4054974483 4.9683032000e-08
30.4581021151 4.9849548068e-08
30.5107067820 5.0016633614e-08
30.5633114489 5.0184347645e-08
30.6159161157 5.0352396427e-08
30.6685207826 5.0520180977e-08
30.7211254495 5.0688311532e-08
30.7737301163 5.0856395740e-08
30.8263347832 5.1023806362e-08
30.8789394501 5.1191632283e-08
30.9315441169 5.1359877092e-08
30.9841487838 5.1528793947e-08
31.0367534507 5.1700423346e-08
31.0893581175 5.1871742361e-08
31.1419627844 5.2039671145e-08
31.1945674513 5.2207953976e-08
31.2471721181 5.2378267866e-08
31.2997767850 5.2549149015e-08
31.3523814519 5.2719839350e-08
31.4049861187 5.2891116832e-08
31.4575907856 5.3063112751e-08
31.5101954525 5.3235253359e-08
31.5628001193 5.3407620311e-08
31.6154047862 5.3579341840e-08
31.6680094531 5.3751731823e-08
31.7206141199 5.3924937704e-08
31.7732187868 5.4097168636e-08
31.8258234536 5.4270185303e-08
31.8784281205 5.4444180179e-08
31.9310327874 5.4616958412e-08
31.9836374542 5.4789831840e-08
32.0362421211 5.4963844847e-08
32.0888467880 5.5138136271e-08
32.1414514548 5.5312774757e-08
32.1940561217 5.5487514330e-08
32.2466607886 5.5662060958e-08
32.2992654554 5.5837149940e-08
32.3518701223 5.6013489925e-08
32.4044747892 5.6190304873e-08
32.4570794560 5.6367002935e-08
32.5096841229 5.6543478497e-08
32.5622887898 5.6719390757e-08
32.6148934566 5.6895637099e-08
32.6674981235 5.7072425720e-08
32.7201027904 5.7249584191e-08
32.7727074572 5.7428285659e-08
32.8253121241 5.7606499093e-08
32.8779167910 5.7783226881e-08
32.9305214578 5.7961917195e-08
32.9831261247 5.8141523463e-08
33.0357307916 5.8320254039e-08
33.0883354584 5.8499113430e-08
33.1409401253 5.8677439384e-08
33.1935447922 5.8855468722e-08
33.2461494590 5.9035109529e-08
33.2987541259 5.9216136262e-08
33.3513587927 5.9397048242e-08
33.4039634596 5.9577437427e-08
33.4565681265 5.9758196031e-08
33.5091727933 5.9939817077e-08
33.5617774602 6.0120969140e-08
33.6143821271 6.0302163812e-08
33.6669867939 6.0484075178e-08
33.7195914608 6.0665778013e-08
33.7721961277 6.0847882898e-08
33.8248007945 6.1031105410e-08
33.8774054614 6.1214510133e-08
33.9300101283 6.1397272008e-08
33.9826147951 6.1579322610e-08
