# HAWAII HYBRID v0.1
# Saved on 2025-08-20 17:55:42
# TEMPERATURE: 100.00
# AVERAGE OVER 502808000.00 TRAJECTORIES
0.0000000000 0.0000000000e+00
0.0526046802 6.1248713437e-13
0.1052093605 1.8725679353e-12
0.1578140407 4.5772669410e-12
0.2104187209 7.9738845751e-12
0.2630234012 1.2682890342e-11
0.3156280814 1.8138066216e-11
0.3682327616 2.5048251851e-11
0.4208374419 3.2680970176e-11
0.4734421221 4.1773395951e-11
0.5260468023 5.1616230987e-11
0.5786514826 6.2783457484e-11
0.6312561628 7.5139418185e-11
0.6838608430 8.8458954373e-11
0.7364655233 1.0321650863e-10
0.7890702035 1.1904163610e-10
0.8416748837 1.3576046548e-10
0.8942795640 1.5408927065e-10
0.9468842442 1.7325495067e-10
0.9994889244 1.9410372558e-10
1.0520936047 2.1579184124e-10
1.1046982849 2.3882896535e-10
1.1573029651 2.6315309576e-10
1.2099076454 2.8829221771e-10
1.2625123256 3.1457997976e-10
1.3151170059 3.4285942307e-10
1.3677216861 3.7197721306e-10
1.4203263663 4.0283356046e-10
1.4729310466 4.3403759429e-10
1.5255357268 4.6674743612e-10
1.5781404070 5.0159964891e-10
1.6307450873 5.3631994965e-10
1.6833497675 5.7252589514e-10
1.7359544477 6.1016554370e-10
1.7885591280 6.4905350614e-10
1.8411638082 6.8944571451e-10
1.8937684884 7.3043510270e-10
1.9463731687 7.7350337358e-10
1.9989778489 8.1648275030e-10
2.0515825291 8.6105694073e-10
2.1041872094 9.0785546107e-10
2.1567918896 9.5377266682e-10
2.2093965698 1.0017424091e-09
2.2620012501 1.0517462892e-09
2.3146059303 1.1030547556e-09
2.3672106105 1.1559417484e-09
2.4198152908 1.2089065866e-09
2.4724199710 1.2639871663e-09
2.5250246512 1.3180816277e-09
2.5776293315 1.3715459033e-09
2.6302340117 1.4290305175e-09
2.6828386919 1.4878604388e-09
2.7354433722 1.5459259010e-09
2.7880480524 1.6040024732e-09
2.8406527326 1.6645303097e-09
2.8932574129 1.7272448028e-09
2.9458620931 1.7897344544e-09
2.9984667733 1.8545768188e-09
3.0510714536 1.9194828732e-09
3.1036761338 1.9852783162e-09
3.1562808140 2.0514402603e-09
3.2088854943 2.1162500766e-09
3.2614901745 2.1840653003e-09
3.3140948547 2.2521623525e-09
3.3666995350 2.3214245659e-09
3.4193042152 2.3927256415e-09
3.4719088954 2.4617061897e-09
3.5245135757 2.5305055738e-09
3.5771182559 2.6024001753e-09
3.6297229361 2.6736454123e-09
3.6823276164 2.7462366441e-09
3.7349322966 2.8195764704e-09
3.7875369768 2.8938130196e-09
3.8401416571 2.9682962147e-09
3.8927463373 3.0420812004e-09
3.9453510176 3.1168004110e-09
3.9979556978 3.1895587809e-09
4.0505603780 3.2652377400e-09
4.1031650583 3.3436423970e-09
4.1557697385 3.4215495627e-09
4.2083744187 3.5019883114e-09
4.2609790990 3.5760331185e-09
4.3135837792 3.6502082016e-09
4.3661884594 3.7325855344e-09
4.4187931397 3.8137200314e-09
4.4713978199 3.8947275390e-09
4.5240025001 3.9739613986e-09
4.5766071804 4.0529479595e-09
4.6292118606 4.1297583992e-09
4.6818165408 4.2063862089e-09
4.7344212211 4.2889284446e-09
4.7870259013 4.3724957265e-09
4.8396305815 4.4582223170e-09
4.8922352618 4.5388233998e-09
4.9448399420 4.6125227152e-09
4.9974446222 4.6949880276e-09
5.0500493025 4.7821001820e-09
5.1026539827 4.8630387447e-09
5.1552586629 4.9450236199e-09
5.2078633432 5.0251042861e-09
5.2604680234 5.1016824872e-09
5.3130727036 5.1866668526e-09
5.3656773839 5.2776175174e-09
5.4182820641 5.3615329067e-09
5.4708867443 5.4446795799e-09
5.5234914246 5.5338770825e-09
5.5760961048 5.6114516238e-09
5.6287007850 5.6885130434e-09
5.6813054653 5.7781859063e-09
5.7339101455 5.8628772546e-09
5.7865148257 5.9459720806e-09
5.8391195060 6.0354781958e-09
5.8917241862 6.1192222865e-09
5.9443288664 6.2086563438e-09
5.9969335467 6.3052059420e-09
6.0495382269 6.3977705222e-09
6.1021429071 6.4850402490e-09
6.1547475874 6.5693678209e-09
6.2073522676 6.6629652294e-09
6.2599569478 6.7601539740e-09
6.3125616281 6.8525339147e-09
6.3651663083 6.9442166483e-09
6.4177709885 7.0340675921e-09
6.4703756688 7.1265533844e-09
6.5229803490 7.2210608498e-09
6.5755850293 7.3245630869e-09
6.6281897095 7.4388843743e-09
6.6807943897 7.5541581379e-09
6.7333990700 7.6743286495e-09
6.7860037502 7.7917153886e-09
6.8386084304 7.9061959999e-09
6.8912131107 8.0259848409e-09
6.9438177909 8.1454940127e-09
6.9964224711 8.2647821700e-09
7.0490271514 8.3857525656e-09
7.1016318316 8.5114365080e-09
7.1542365118 8.6361849214e-09
7.2068411921 8.7585097152e-09
7.2594458723 8.8867885722e-09
7.3120505525 9.0138685714e-09
7.3646552328 9.1408947848e-09
7.4172599130 9.2682069190e-09
7.4698645932 9.3973084411e-09
7.5224692735 9.5309990600e-09
7.5750739537 9.6588265679e-09
7.6276786339 9.7906564772e-09
7.6802833142 9.9249863654e-09
7.7328879944 1.0053416172e-08
7.7854926746 1.0189233104e-08
7.8380973549 1.0324916549e-08
7.8907020351 1.0458774005e-08
7.9433067153 1.0593131994e-08
7.9959113956 1.0724127842e-08
8.0485160758 1.0861027385e-08
8.1011207560 1.1006752536e-08
8.1537254363 1.1148027437e-08
8.2063301165 1.1291334896e-08
8.2589347967 1.1431169370e-08
8.3115394770 1.1573003380e-08
8.3641441572 1.1722439302e-08
8.4167488374 1.1863665563e-08
8.4693535177 1.2005996945e-08
8.5219581979 1.2150137666e-08
8.5745628781 1.2295744961e-08
8.6271675584 1.2445459509e-08
8.6797722386 1.2596711881e-08
8.7323769188 1.2750537302e-08
8.7849815991 1.2893151019e-08
8.8375862793 1.3037260043e-08
8.8901909595 1.3191689117e-08
8.9427956398 1.3345230811e-08
8.9954003200 1.3503620833e-08
9.0480050003 1.3652762106e-08
9.1006096805 1.3798903752e-08
9.1532143607 1.3954860619e-08
9.2058190410 1.4109283307e-08
9.2584237212 1.4270590671e-08
9.3110284014 1.4431909333e-08
9.3636330817 1.4587343001e-08
9.4162377619 1.4746160724e-08
9.4688424421 1.4903857028e-08
9.5214471224 1.5058294039e-08
9.5740518026 1.5216795100e-08
9.6266564828 1.5382658488e-08
9.6792611631 1.5550025487e-08
9.7318658433 1.5718840913e-08
9.7844705235 1.5884629604e-08
9.8370752038 1.6044361220e-08
9.8896798840 1.6211564701e-08
9.9422845642 1.6377020943e-08
9.9948892445 1.6542317810e-08
10.0474939247 1.6718631510e-08
10.1000986049 1.6893172040e-08
10.1527032852 1.7062281679e-08
10.2053079654 1.7218572199e-08
10.2579126456 1.7383322675e-08
10.3105173259 1.7570315022e-08
10.3631220061 1.7753188060e-08
10.4157266863 1.7916875569e-08
10.4683313666 1.8090493295e-08
10.5209360468 1.8270197950e-08
10.5735407270 1.8444229079e-08
10.6261454073 1.8625777204e-08
10.6787500875 1.8806470211e-08
10.7313547677 1.8979873102e-08
10.7839594480 1.9154833531e-08
10.8365641282 1.9340820099e-08
10.8891688084 1.9527044070e-08
10.9417734887 1.9708655084e-08
10.9943781689 1.9892818228e-08
11.0469828491 2.0070915765e-08
11.0995875294 2.0253282162e-08
11.1521922096 2.0430296633e-08
11.2047968898 2.0603817311e-08
11.2574015701 2.0807607079e-08
11.3100062503 2.1013833483e-08
11.3626109305 2.1200433326e-08
11.4152156108 2.1384465325e-08
11.4678202910 2.1569716161e-08
11.5204249712 2.1765006365e-08
11.5730296515 2.1956275283e-08
11.6256343317 2.2140196108e-08
11.6782390120 2.2340780330e-08
11.7308436922 2.2536038672e-08
11.7834483724 2.2728245872e-08
11.8360530527 2.2922782938e-08
11.8886577329 2.3111191625e-08
11.9412624131 2.3306176530e-08
11.9938670934 2.3500740785e-08
12.0464717736 2.3699215824e-08
12.0990764538 2.3896180020e-08
12.1516811341 2.4086781756e-08
12.2042858143 2.4279585717e-08
12.2568904945 2.4481708960e-08
12.3094951748 2.4697738578e-08
12.3620998550 2.4909493808e-08
12.4147045352 2.5124828666e-08
12.4673092155 2.5338655845e-08
12.5199138957 2.5531966084e-08
12.5725185759 2.5724857300e-08
12.6251232562 2.5927899268e-08
12.6777279364 2.6126602139e-08
12.7303326166 2.6326004257e-08
12.7829372969 2.6530892826e-08
12.8355419771 2.6737737043e-08
12.8881466573 2.6934997574e-08
12.9407513376 2.7141333102e-08
12.9933560178 2.7368445484e-08
13.0459606980 2.7583333762e-08
13.0985653783 2.7796911183e-08
13.1511700585 2.8003082764e-08
13.2037747387 2.8205196488e-08
13.2563794190 2.8444673545e-08
13.3089840992 2.8670169963e-08
13.3615887794 2.8877886453e-08
13.4141934597 2.9096004701e-08
13.4667981399 2.9306951718e-08
13.5194028201 2.9523476313e-08
13.5720075004 2.9732625233e-08
13.6246121806 2.9956445357e-08
13.6772168608 3.0195368257e-08
13.7298215411 3.0414698820e-08
13.7824262213 3.0622840746e-08
13.8350309015 3.0820200198e-08
13.8876355818 3.1051312264e-08
13.9402402620 3.1288742710e-08
13.9928449422 3.1491314940e-08
14.0454496225 3.1707946715e-08
14.0980543027 3.1935968702e-08
14.1506589829 3.2179698419e-08
14.2032636632 3.2423692971e-08
14.2558683434 3.2648014782e-08
14.3084730237 3.2873558749e-08
14.3610777039 3.3084173299e-08
14.4136823841 3.3303695169e-08
14.4662870644 3.3529898183e-08
14.5188917446 3.3760964831e-08
14.5714964248 3.4019712159e-08
14.6241011051 3.4244129275e-08
14.6767057853 3.4450566273e-08
14.7293104655 3.4685816346e-08
14.7819151458 3.4919961532e-08
14.8345198260 3.5138855969e-08
14.8871245062 3.5368522545e-08
14.9397291865 3.5624172110e-08
14.9923338667 3.5883419473e-08
15.0449385469 3.6110881998e-08
15.0975432272 3.6346433066e-08
15.1501479074 3.6592152026e-08
15.2027525876 3.6814251251e-08
15.2553572679 3.7058736589e-08
15.3079619481 3.7313093776e-08
15.3605666283 3.7550954703e-08
15.4131713086 3.7795814770e-08
15.4657759888 3.8027694122e-08
15.5183806690 3.8245130957e-08
15.5709853493 3.8483120346e-08
15.6235900295 3.8747360539e-08
15.6761947097 3.9003365107e-08
15.7287993900 3.9224825141e-08
15.7814040702 3.9437575860e-08
15.8340087504 3.9690543898e-08
15.8866134307 3.9985729759e-08
15.9392181109 4.0238802649e-08
15.9918227911 4.0442803560e-08
16.0444274714 4.0694304915e-08
16.0970321516 4.0964081591e-08
16.1496368318 4.1200952775e-08
16.2022415121 4.1422595159e-08
16.2548461923 4.1665827666e-08
16.3074508725 4.1941845131e-08
16.3600555528 4.2193706326e-08
16.4126602330 4.2435723963e-08
16.4652649132 4.2708602760e-08
16.5178695935 4.2971305850e-08
16.5704742737 4.3201535191e-08
16.6230789539 4.3432278073e-08
16.6756836342 4.3700140034e-08
16.7282883144 4.3974730047e-08
16.7808929946 4.4230636477e-08
16.8334976749 4.4481315713e-08
16.8861023551 4.4725617484e-08
16.9387070354 4.5009304866e-08
16.9913117156 4.5277577361e-08
17.0439163958 4.5499112972e-08
17.0965210761 4.5756635168e-08
17.1491257563 4.6020069059e-08
17.2017304365 4.6241172191e-08
17.2543351168 4.6477907794e-08
17.3069397970 4.6764168129e-08
17.3595444772 4.7070395876e-08
17.4121491575 4.7336300440e-08
17.4647538377 4.7563264319e-08
17.5173585179 4.7821917813e-08
17.5699631982 4.8086415084e-08
17.6225678784 4.8334930956e-08
17.6751725586 4.8623888494e-08
17.7277772389 4.8919410902e-08
17.7803819191 4.9151325159e-08
17.8329865993 4.9380763953e-08
17.8855912796 4.9706547785e-08
17.9381959598 5.0020401506e-08
17.9908006400 5.0238068866e-08
18.0434053203 5.0468043566e-08
18.0960100005 5.0724089817e-08
18.1486146807 5.1001817442e-08
18.2012193610 5.1299933869e-08
18.2538240412 5.1579237782e-08
18.3064287214 5.1852366809e-08
18.3590334017 5.2115117484e-08
18.4116380819 5.2382735018e-08
18.4642427621 5.2664237539e-08
18.5168474424 5.2945381332e-08
18.5694521226 5.3225370319e-08
18.6220568028 5.3484309591e-08
18.6746614831 5.3755446188e-08
18.7272661633 5.4057128641e-08
18.7798708435 5.4304977595e-08
18.8324755238 5.4539000609e-08
18.8850802040 5.4830818673e-08
18.9376848842 5.5124182357e-08
18.9902895645 5.5385999306e-08
19.0428942447 5.5652399983e-08
19.0954989249 5.5948870806e-08
19.1481036052 5.6224006092e-08
19.2007082854 5.6475255504e-08
19.2533129656 5.6741232011e-08
19.3059176459 5.7033956118e-08
19.3585223261 5.7342567277e-08
19.4111270064 5.7650770951e-08
19.4637316866 5.7917754251e-08
19.5163363668 5.8175401568e-08
19.5689410471 5.8452038491e-08
19.6215457273 5.8740753018e-08
19.6741504075 5.9028893976e-08
19.7267550878 5.9287808269e-08
19.7793597680 5.9556680660e-08
19.8319644482 5.9850730102e-08
19.8845691285 6.0147973596e-08
19.9371738087 6.0424145600e-08
19.9897784889 6.0698386935e-08
20.0423831692 6.0972366457e-08
20.0949878494 6.1237196033e-08
20.1475925296 6.1522378441e-08
20.2001972099 6.1793843487e-08
20.2528018901 6.2069540165e-08
20.3054065703 6.2382170237e-08
20.3580112506 6.2685105700e-08
20.4106159308 6.2971609025e-08
20.4632206110 6.3276349582e-08
20.5158252913 6.3580947683e-08
20.5684299715 6.3865545089e-08
20.6210346517 6.4161301038e-08
20.6736393320 6.4437749928e-08
20.7262440122 6.4655487540e-08
20.7788486924 6.4953942374e-08
20.8314533727 6.5329417550e-08
20.8840580529 6.5605038257e-08
20.9366627331 6.5874248055e-08
20.9892674134 6.6179006812e-08
21.0418720936 6.6447135509e-08
21.0944767738 6.6730979648e-08
21.1470814541 6.7015936960e-08
21.1996861343 6.7311293380e-08
21.2522908145 6.7601902291e-08
21.3048954948 6.7845473657e-08
21.3575001750 6.8143301873e-08
21.4101048552 6.8493976225e-08
21.4627095355 6.8802105167e-08
21.5153142157 6.9052295843e-08
21.5679188959 6.9294877481e-08
21.6205235762 6.9606525529e-08
21.6731282564 6.9925390991e-08
21.7257329366 7.0157708740e-08
21.7783376169 7.0453504327e-08
21.8309422971 7.0854883955e-08
21.8835469773 7.1204568816e-08
21.9361516576 7.1451795213e-08
21.9887563378 7.1691801659e-08
22.0413610181 7.1952303637e-08
22.0939656983 7.2206227126e-08
22.1465703785 7.2467742075e-08
22.1991750588 7.2821671911e-08
22.2517797390 7.3211319740e-08
22.3043844192 7.3474614957e-08
22.3569890995 7.3738255848e-08
22.4095937797 7.4080333044e-08
22.4621984599 7.4401842343e-08
22.5148031402 7.4700832824e-08
22.5674078204 7.4946882366e-08
22.6200125006 7.5191111240e-08
22.6726171809 7.5522724907e-08
22.7252218611 7.5855342009e-08
22.7778265413 7.6125650996e-08
22.8304312216 7.6363713106e-08
22.8830359018 7.6651449609e-08
22.9356405820 7.6981525912e-08
22.9882452623 7.7243543640e-08
23.0408499425 7.7508939067e-08
23.0934546227 7.7864897178e-08
23.1460593030 7.8215629203e-08
23.1986639832 7.8539597160e-08
23.2512686634 7.8865256884e-08
23.3038733437 7.9149308348e-08
23.3564780239 7.9387263279e-08
23.4090827041 7.9641838994e-08
23.4616873844 7.9976765513e-08
23.5142920646 8.0358581841e-08
23.5668967448 8.0662607170e-08
23.6195014251 8.0935312210e-08
23.6721061053 8.1228067577e-08
23.7247107855 8.1499811726e-08
23.7773154658 8.1816263942e-08
23.8299201460 8.2154926949e-08
23.8825248262 8.2471291131e-08
23.9351295065 8.2762270990e-08
23.9877341867 8.3013155434e-08
24.0403388669 8.3300692789e-08
24.0929435472 8.3615620265e-08
24.1455482274 8.3899402294e-08
24.1981529076 8.4181920894e-08
24.2507575879 8.4524436749e-08
24.3033622681 8.4849493666e-08
24.3559669483 8.5139657090e-08
24.4085716286 8.5471446501e-08
24.4611763088 8.5766199224e-08
24.5137809890 8.6074305767e-08
24.5663856693 8.6426918136e-08
24.6189903495 8.6719053136e-08
24.6715950298 8.7010466773e-08
24.7241997100 8.7297627330e-08
24.7768043902 8.7556461437e-08
24.8294090705 8.7885816287e-08
24.8820137507 8.8245448601e-08
24.9346184309 8.8502957937e-08
24.9872231112 8.8788165169e-08
25.0398277914 8.9128975533e-08
25.0924324716 8.9420792601e-08
25.1450371519 8.9746821609e-08
25.1976418321 9.0021105590e-08
25.2502465123 9.0285908431e-08
25.3028511926 9.0603618047e-08
25.3554558728 9.0923890986e-08
25.4080605530 9.1260005347e-08
25.4606652333 9.1525942093e-08
25.5132699135 9.1769570866e-08
25.5658745937 9.2081042363e-08
25.6184792740 9.2422177271e-08
25.6710839542 9.2743900979e-08
25.7236886344 9.3047090826e-08
25.7762933147 9.3348108807e-08
25.8288979949 9.3672639755e-08
25.8815026751 9.3979190606e-08
25.9341073554 9.4262907593e-08
25.9867120356 9.4577993384e-08
26.0393167158 9.4862268231e-08
26.0919213961 9.5160196656e-08
26.1445260763 9.5457480570e-08
26.1971307565 9.5723519210e-08
26.2497354368 9.6073272903e-08
26.3023401170 9.6451928175e-08
26.3549447972 9.6745322111e-08
26.4075494775 9.7024615233e-08
26.4601541577 9.7327473652e-08
26.5127588379 9.7656092321e-08
26.5653635182 9.7996846179e-08
26.6179681984 9.8284023399e-08
26.6705728786 9.8566639204e-08
26.7231775589 9.8882841585e-08
26.7757822391 9.9205688867e-08
26.8283869193 9.9491853569e-08
26.8809915996 9.9766073842e-08
26.9335962798 1.0005553213e-07
26.9862009600 1.0037105647e-07
27.0388056403 1.0072488494e-07
27.0914103205 1.0104187534e-07
27.1440150008 1.0134965477e-07
27.1966196810 1.0168647016e-07
27.2492243612 1.0197566174e-07
27.3018290415 1.0218236356e-07
27.3544337217 1.0246346826e-07
27.4070384019 1.0284222233e-07
27.4596430822 1.0308990310e-07
27.5122477624 1.0331724176e-07
27.5648524426 1.0366492839e-07
27.6174571229 1.0399947303e-07
27.6700618031 1.0431469718e-07
27.7226664833 1.0463968055e-07
27.7752711636 1.0492884232e-07
27.8278758438 1.0522023866e-07
27.8804805240 1.0555846466e-07
27.9330852043 1.0585388247e-07
27.9856898845 1.0609697398e-07
28.0382945647 1.0640592658e-07
28.0908992450 1.0672539648e-07
28.1435039252 1.0700571625e-07
28.1961086054 1.0729818268e-07
28.2487132857 1.0759524716e-07
28.3013179659 1.0793466244e-07
28.3539226461 1.0827492055e-07
28.4065273264 1.0862526640e-07
28.4591320066 1.0892589891e-07
28.5117366868 1.0916907766e-07
28.5643413671 1.0944659524e-07
28.6169460473 1.0968769239e-07
28.6695507275 1.0999765038e-07
28.7221554078 1.1035815557e-07
28.7747600880 1.1071562763e-07
28.8273647682 1.1106188018e-07
28.8799694485 1.1128892450e-07
28.9325741287 1.1150952349e-07
28.9851788089 1.1185799810e-07
29.0377834892 1.1225917871e-07
29.0903881694 1.1255558118e-07
29.1429928496 1.1278266342e-07
29.1955975299 1.1306057712e-07
29.2482022101 1.1338006098e-07
29.3008068903 1.1371021840e-07
29.3534115706 1.1399208183e-07
29.4060162508 1.1422300698e-07
29.4586209310 1.1451372329e-07
29.5112256113 1.1486051454e-07
29.5638302915 1.1516086145e-07
29.6164349717 1.1544851421e-07
29.6690396520 1.1578290485e-07
29.7216443322 1.1615052079e-07
29.7742490125 1.1647692757e-07
29.8268536927 1.1674594473e-07
29.8794583729 1.1699519424e-07
29.9320630532 1.1726153928e-07
29.9846677334 1.1757873351e-07
30.0372724136 1.1787633579e-07
30.0898770939 1.1816731274e-07
30.1424817741 1.1848063448e-07
30.1950864543 1.1878376176e-07
30.2476911346 1.1906505331e-07
30.3002958148 1.1936885501e-07
30.3529004950 1.1968359533e-07
30.4055051753 1.1994928460e-07
30.4581098555 1.2025262399e-07
30.5107145357 1.2059278600e-07
30.5633192160 1.2086158939e-07
30.6159238962 1.2112618938e-07
30.6685285764 1.2142701174e-07
30.7211332567 1.2176951345e-07
30.7737379369 1.2212081895e-07
30.8263426171 1.2237734381e-07
30.8789472974 1.2263745447e-07
30.9315519776 1.2297667304e-07
30.9841566578 1.2328225844e-07
31.0367613381 1.2349953340e-07
31.0893660183 1.2376250302e-07
31.1419706985 1.2408584383e-07
31.1945753788 1.2436073703e-07
31.2471800590 1.2468559040e-07
31.2997847392 1.2505194351e-07
31.3523894195 1.2536274627e-07
31.4049940997 1.2564991043e-07
31.4575987799 1.2597486073e-07
31.5102034602 1.2626547740e-07
31.5628081404 1.2644677715e-07
31.6154128206 1.2669161999e-07
31.6680175009 1.2698617080e-07
31.7206221811 1.2732435109e-07
31.7732268613 1.2771161953e-07
31.8258315416 1.2795368010e-07
31.8784362218 1.2818233233e-07
31.9310409020 1.2849808914e-07
31.9836455823 1.2885212855e-07
32.0362502625 1.2922160486e-07
32.0888549427 1.2950760577e-07
32.1414596230 1.2973414995e-07
32.1940643032 1.3000191396e-07
32.2466689834 1.3030643153e-07
32.2992736637 1.3061379345e-07
32.3518783439 1.3090646605e-07
32.4044830242 1.3115291715e-07
32.4570877044 1.3140746161e-07
32.5096923846 1.3171525932e-07
32.5622970649 1.3203366482e-07
32.6149017451 1.3232726868e-07
32.6675064253 1.3264572878e-07
32.7201111056 1.3295064714e-07
32.7727157858 1.3319098884e-07
32.8253204660 1.3344319868e-07
32.8779251463 1.3369297399e-07
32.9305298265 1.3396129721e-07
32.9831345067 1.3429157787e-07
33.0357391870 1.3460483184e-07
33.0883438672 1.3490432832e-07
33.1409485474 1.3522480609e-07
33.1935532277 1.3554096842e-07
33.2461579079 1.3580401905e-07
33.2987625881 1.3606119002e-07
33.3513672684 1.3640415740e-07
33.4039719486 1.3672354946e-07
33.4565766288 1.3698177553e-07
33.5091813091 1.3727020538e-07
33.5617859893 1.3755954798e-07
33.6143906695 1.3787936743e-07
33.6669953498 1.3819493201e-07
33.7196000300 1.3848165016e-07
33.7722047102 1.3875952925e-07
33.8248093905 1.3896764608e-07
33.8774140707 1.3915348765e-07
33.9300187509 1.3943980442e-07
33.9826234312 1.3977048678e-07
