# HAWAII HYBRID v0.1
# TEMPERATURE: 100.00
# AVERAGE OVER 2808000.00 TRAJECTORIES
# MAXIMUM TRAJECTORY LENGTH: 65536
0.000 0.0000000000e+00
0.053 1.2383763900e-13
0.105 -8.5697981769e-14
0.158 1.8582716883e-13
0.210 1.2974627121e-13
0.263 4.7016344438e-13
0.316 6.1256450969e-13
0.368 1.1044489563e-12
0.421 1.4908640496e-12
0.473 2.1958624977e-12
0.526 2.8669129177e-12
0.579 3.9002612052e-12
0.631 4.9311201985e-12
0.684 6.1951827583e-12
0.736 7.6684519241e-12
0.789 9.5294920736e-12
0.842 1.1337414903e-11
0.894 1.3439230250e-11
0.947 1.5764726610e-11
0.999 1.8428546931e-11
1.052 2.1375490503e-11
1.105 2.4696510556e-11
1.157 2.7882084154e-11
1.210 3.1435512393e-11
1.263 3.5205613253e-11
1.315 3.9430218665e-11
1.368 4.4124533875e-11
1.420 4.8980769288e-11
1.473 5.3750956340e-11
1.526 5.9175835424e-11
1.578 6.5145572381e-11
1.631 7.0700206905e-11
1.683 7.6009782633e-11
1.736 8.2354280007e-11
1.789 8.9233976623e-11
1.841 9.5935997846e-11
1.894 1.0281192966e-10
1.946 1.0997914439e-10
1.999 1.1702059462e-10
2.052 1.2446748162e-10
2.104 1.3223083443e-10
2.157 1.3963605047e-10
2.209 1.4708761124e-10
2.262 1.5591226428e-10
2.315 1.6520324277e-10
2.367 1.7411676345e-10
2.420 1.8304368254e-10
2.472 1.9219169290e-10
2.525 2.0049045637e-10
2.578 2.0731673017e-10
2.630 2.1599521533e-10
2.683 2.2636746534e-10
2.735 2.3401188377e-10
2.788 2.4140502265e-10
2.841 2.4986297508e-10
2.893 2.5876968972e-10
2.946 2.6768827607e-10
2.998 2.7579402591e-10
3.051 2.8437475355e-10
3.104 2.9312796145e-10
3.156 3.0043331326e-10
3.209 3.0603181934e-10
3.261 3.1194246479e-10
3.314 3.1893823873e-10
3.367 3.2495462234e-10
3.419 3.3035704804e-10
3.472 3.3578334052e-10
3.525 3.4014997753e-10
3.577 3.4407151337e-10
3.630 3.4683775989e-10
3.682 3.4765526072e-10
3.735 3.5091629483e-10
3.788 3.5511122705e-10
3.840 3.5679411754e-10
3.893 3.5705367767e-10
3.945 3.5641384350e-10
3.998 3.5513331037e-10
4.051 3.5241459122e-10
4.103 3.4989852678e-10
4.156 3.4814030158e-10
4.208 3.4534386247e-10
4.261 3.3939572702e-10
4.314 3.3146306559e-10
4.366 3.2418191767e-10
4.419 3.1522936010e-10
4.471 3.0713903215e-10
4.524 2.9866388642e-10
4.577 2.8658344847e-10
4.629 2.7175834310e-10
4.682 2.5790880629e-10
4.734 2.4614530451e-10
4.787 2.3086054989e-10
4.840 2.1424887903e-10
4.892 1.9657718108e-10
4.945 1.7633294874e-10
4.997 1.5609732234e-10
5.050 1.3387818388e-10
5.103 1.1075055966e-10
5.155 8.7194712798e-11
5.208 6.1854537152e-11
5.260 3.5686404410e-11
5.313 1.4789539059e-11
5.366 6.5208201250e-12
5.418 6.1729404146e-12
5.471 6.4709443847e-12
5.523 6.7931703143e-12
5.576 7.1512248443e-12
5.629 7.3829211505e-12
5.681 7.4951988475e-12
5.734 7.7384355995e-12
5.787 8.3477626555e-12
5.839 8.8025051705e-12
5.892 9.1232127332e-12
5.944 9.7068934304e-12
5.997 1.0004601631e-11
6.050 1.0280260609e-11
6.102 1.0546209375e-11
6.155 1.0832769975e-11
6.207 1.1180115880e-11
6.260 1.1507616605e-11
6.313 1.2253424803e-11
6.365 1.3210554960e-11
6.418 1.3316497965e-11
6.470 1.3180383422e-11
6.523 1.3660881500e-11
6.576 1.4138006756e-11
6.628 1.4878829523e-11
6.681 1.5913955475e-11
6.733 1.6431327833e-11
6.786 1.7136834831e-11
6.839 1.7488720286e-11
6.891 1.7044876829e-11
6.944 1.7325369950e-11
6.996 1.8852973881e-11
7.049 2.0204825394e-11
7.102 2.0944418467e-11
7.154 2.2183782545e-11
7.207 2.3620875371e-11
7.259 2.3934613212e-11
7.312 2.4125990100e-11
7.365 2.5175631769e-11
7.417 2.5924814706e-11
7.470 2.6840720352e-11
7.522 2.7833573287e-11
7.575 2.8213117196e-11
7.628 2.9002439654e-11
7.680 2.9710650865e-11
7.733 2.9851168707e-11
7.785 3.0956664833e-11
7.838 3.3404277533e-11
7.891 3.4818420873e-11
7.943 3.5236212092e-11
7.996 3.5465957495e-11
8.049 3.6611987712e-11
8.101 3.8571792355e-11
8.154 3.9502448847e-11
8.206 4.0630150877e-11
8.259 4.0993009520e-11
8.312 4.1040101737e-11
8.364 4.3569594407e-11
8.417 4.6066145245e-11
8.469 4.7084710486e-11
8.522 4.7323834665e-11
8.575 4.7930752088e-11
8.627 5.0421632415e-11
8.680 5.3181883269e-11
8.732 5.4168217472e-11
8.785 5.4222799268e-11
8.838 5.5784160154e-11
8.890 5.7330879040e-11
8.943 5.8650050979e-11
8.995 6.1372123744e-11
9.048 6.1265828291e-11
9.101 6.1181306687e-11
9.153 6.4860952387e-11
9.206 6.6704810635e-11
9.258 6.7400754701e-11
9.311 7.0192284108e-11
9.364 7.1576670398e-11
9.416 7.2894659095e-11
9.469 7.6226553099e-11
9.521 7.7535312026e-11
9.574 7.9097838653e-11
9.627 8.2903436429e-11
9.679 8.4676825871e-11
9.732 8.6377724211e-11
9.784 8.9004005842e-11
9.837 8.9740947805e-11
9.890 9.1717732760e-11
9.942 9.4895494906e-11
9.995 9.6256282929e-11
10.047 9.9569282725e-11
10.100 1.0465184945e-10
10.153 1.0709296184e-10
10.205 1.0746272485e-10
10.258 1.0751487337e-10
10.311 1.0961570337e-10
10.363 1.1371299177e-10
10.416 1.1502608186e-10
10.468 1.1709740903e-10
10.521 1.2392070057e-10
10.574 1.2891850632e-10
10.626 1.2959072846e-10
10.679 1.2967315193e-10
10.731 1.3198822186e-10
10.784 1.3724371063e-10
10.837 1.4350859455e-10
10.889 1.4659637793e-10
10.942 1.4790289132e-10
10.994 1.5154280770e-10
11.047 1.5732429955e-10
11.100 1.6055392879e-10
11.152 1.5731277518e-10
11.205 1.5710515810e-10
11.257 1.6607528434e-10
11.310 1.7452208167e-10
11.363 1.7580111327e-10
11.415 1.7680920233e-10
11.468 1.8077328894e-10
11.520 1.8547981408e-10
11.573 1.8907305023e-10
11.626 1.9328179892e-10
11.678 1.9930915241e-10
11.731 2.0090723339e-10
11.783 2.0116917635e-10
11.836 2.0448890842e-10
11.889 2.0853041714e-10
11.941 2.1516431696e-10
11.994 2.2092075358e-10
12.046 2.2309470778e-10
12.099 2.2743596495e-10
12.152 2.3109072942e-10
12.204 2.3376758443e-10
12.257 2.4069734719e-10
12.309 2.4937957601e-10
12.362 2.5747837399e-10
12.415 2.6397706435e-10
12.467 2.6453619948e-10
12.520 2.6338024574e-10
12.573 2.6955616411e-10
12.625 2.8283695999e-10
12.678 2.9242170701e-10
12.730 2.8794325969e-10
12.783 2.8797921150e-10
12.836 2.9724900110e-10
12.888 2.9541137311e-10
12.941 2.9420972896e-10
12.993 3.1002419225e-10
13.046 3.2561367758e-10
13.099 3.2643219438e-10
13.151 3.2579715301e-10
13.204 3.3374893520e-10
13.256 3.4238719024e-10
13.309 3.5179679602e-10
13.362 3.6256459417e-10
13.414 3.6960286335e-10
13.467 3.7505654395e-10
13.519 3.7378490736e-10
13.572 3.6884769188e-10
13.625 3.7513054404e-10
13.677 3.8514153237e-10
13.730 3.9629922718e-10
13.782 4.1443267052e-10
13.835 4.1938404375e-10
13.888 4.1470047872e-10
13.940 4.1484092665e-10
13.993 4.1838979706e-10
14.045 4.2896227915e-10
14.098 4.3875597162e-10
14.151 4.4890486406e-10
14.203 4.6976779809e-10
14.256 4.8761816036e-10
14.308 4.8902342678e-10
14.361 4.8462342703e-10
14.414 4.8410234039e-10
14.466 4.9109502161e-10
14.519 4.9899334584e-10
14.571 5.1069902979e-10
14.624 5.3117155688e-10
14.677 5.4288730679e-10
14.729 5.4989970823e-10
14.782 5.5472064596e-10
14.835 5.5895384175e-10
14.887 5.7005249382e-10
14.940 5.7550955573e-10
14.992 5.7732314240e-10
15.045 5.8161045123e-10
15.098 5.9120569548e-10
15.150 6.0463705293e-10
15.203 6.1526297868e-10
15.255 6.2502468614e-10
15.308 6.3062142285e-10
15.361 6.3730512438e-10
15.413 6.5639471745e-10
15.466 6.6185615413e-10
15.518 6.5540983371e-10
15.571 6.6830987526e-10
15.624 6.8371086115e-10
15.676 6.8875531131e-10
15.729 6.8638888821e-10
15.781 6.8790575278e-10
15.834 7.0717932122e-10
15.887 7.3175624124e-10
15.939 7.3938707730e-10
15.992 7.3428745910e-10
16.044 7.4180876275e-10
16.097 7.6196476231e-10
16.150 7.7974972102e-10
16.202 7.8395288396e-10
16.255 7.9012827210e-10
16.307 8.0916816140e-10
16.360 8.2072473406e-10
16.413 8.3649255542e-10
16.465 8.6279884130e-10
16.518 8.7386635818e-10
16.570 8.6851146591e-10
16.623 8.7074715747e-10
16.676 8.8891459491e-10
16.728 8.9704641152e-10
16.781 9.0172218000e-10
16.833 9.2275851450e-10
16.886 9.3572353958e-10
16.939 9.4190463121e-10
16.991 9.4366281076e-10
17.044 9.4552546882e-10
17.097 9.6115461189e-10
17.149 9.7903180572e-10
17.202 9.8591109277e-10
17.254 9.8584857433e-10
17.307 1.0034673619e-09
17.360 1.0285005569e-09
17.412 1.0327597251e-09
17.465 1.0349163900e-09
17.517 1.0587679760e-09
17.570 1.0678472486e-09
17.623 1.0663560851e-09
17.675 1.0907648613e-09
17.728 1.1146699826e-09
17.780 1.1137229420e-09
17.833 1.1073906650e-09
17.886 1.1314369404e-09
17.938 1.1750590530e-09
17.991 1.1915091293e-09
18.043 1.1826875697e-09
18.096 1.1806776697e-09
18.149 1.1945867900e-09
18.201 1.2180563099e-09
18.254 1.2356440007e-09
18.306 1.2362086445e-09
18.359 1.2471254181e-09
18.412 1.2708418331e-09
18.464 1.2830560135e-09
18.517 1.2947516358e-09
18.569 1.2989005113e-09
18.622 1.3222789903e-09
18.675 1.3540035813e-09
18.727 1.3620744559e-09
18.780 1.3704550689e-09
18.832 1.3628367197e-09
18.885 1.3729905006e-09
18.938 1.4101372407e-09
18.990 1.4151980660e-09
19.043 1.4079078104e-09
19.095 1.4196021080e-09
19.148 1.4479637560e-09
19.201 1.4828565623e-09
19.253 1.4910630699e-09
19.306 1.4825347684e-09
19.359 1.5070371760e-09
19.411 1.5427753171e-09
19.464 1.5468260174e-09
19.516 1.5650928800e-09
19.569 1.5919270671e-09
19.622 1.5869045601e-09
19.674 1.5796858658e-09
19.727 1.5737924014e-09
19.779 1.5765860631e-09
19.832 1.6097551433e-09
19.885 1.6426879445e-09
19.937 1.6608606779e-09
19.990 1.6914234115e-09
20.042 1.7084578902e-09
20.095 1.7029338490e-09
20.148 1.6883164172e-09
20.200 1.6666746659e-09
20.253 1.6660102822e-09
20.305 1.6856811039e-09
20.358 1.7218353628e-09
20.411 1.7683895710e-09
20.463 1.7947602958e-09
20.516 1.7952913590e-09
20.568 1.7841282269e-09
20.621 1.7911167005e-09
20.674 1.8107824305e-09
20.726 1.8119614634e-09
20.779 1.8294447193e-09
20.831 1.8587596739e-09
20.884 1.8628159415e-09
20.937 1.8749950032e-09
20.989 1.9085860693e-09
21.042 1.9306930816e-09
21.094 1.9356305297e-09
21.147 1.9294558229e-09
21.200 1.9248471840e-09
21.252 1.9381300332e-09
21.305 1.9404486533e-09
21.357 1.9416990799e-09
21.410 1.9771783711e-09
21.463 1.9980092823e-09
21.515 1.9823902610e-09
21.568 1.9624168229e-09
21.621 1.9829870049e-09
21.673 2.0336132749e-09
21.726 2.0465620158e-09
21.778 2.0612886794e-09
21.831 2.1138535959e-09
21.884 2.1345905531e-09
21.936 2.0978259466e-09
21.989 2.0690865346e-09
22.041 2.0756512247e-09
22.094 2.0843210996e-09
22.147 2.0825695898e-09
22.199 2.1046050265e-09
22.252 2.1526131398e-09
22.304 2.1608705621e-09
22.357 2.1547082809e-09
22.410 2.1727873092e-09
22.462 2.1991834377e-09
22.515 2.2285188446e-09
22.567 2.2246077698e-09
22.620 2.1970393344e-09
22.673 2.2020789944e-09
22.725 2.2348509063e-09
22.778 2.2345541902e-09
22.830 2.2274074264e-09
22.883 2.2726345232e-09
22.936 2.3056991022e-09
22.988 2.2758217157e-09
23.041 2.2479619431e-09
23.093 2.2764667372e-09
23.146 2.3276576112e-09
23.199 2.3474293830e-09
23.251 2.3389384963e-09
23.304 2.3321951574e-09
23.356 2.3291220988e-09
23.409 2.3255315319e-09
23.462 2.3411276022e-09
23.514 2.3807418326e-09
23.567 2.3952565956e-09
23.619 2.3941452070e-09
23.672 2.3989995384e-09
23.725 2.4083130385e-09
23.777 2.4460790854e-09
23.830 2.4756230410e-09
23.883 2.4861891595e-09
23.935 2.4829231985e-09
23.988 2.4696932515e-09
24.040 2.4684300403e-09
24.093 2.4686045927e-09
24.146 2.4692289967e-09
24.198 2.4790909252e-09
24.251 2.5172523283e-09
24.303 2.5554093834e-09
24.356 2.5558338258e-09
24.409 2.5456315146e-09
24.461 2.5604144196e-09
24.514 2.5712219022e-09
24.566 2.5444287376e-09
24.619 2.5588363980e-09
24.672 2.6019635691e-09
24.724 2.5917260559e-09
24.777 2.5786780377e-09
24.829 2.6113271766e-09
24.882 2.6274158995e-09
24.935 2.5950704173e-09
24.987 2.6225213401e-09
25.040 2.6674558008e-09
25.092 2.6672093399e-09
25.145 2.7067039473e-09
25.198 2.7149021616e-09
25.250 2.6997935836e-09
25.303 2.7055926053e-09
25.355 2.6931805194e-09
25.408 2.6992701619e-09
25.461 2.7111807012e-09
25.513 2.7259861589e-09
25.566 2.7407014471e-09
25.618 2.7367226267e-09
25.671 2.7599949874e-09
25.724 2.7946742404e-09
25.776 2.7868341151e-09
25.829 2.7725333518e-09
25.881 2.7770949315e-09
25.934 2.7861088787e-09
25.987 2.8073878505e-09
26.039 2.8019385945e-09
26.092 2.7928161096e-09
26.145 2.7921711406e-09
26.197 2.7455609981e-09
26.250 2.7723710252e-09
26.302 2.8616044210e-09
26.355 2.8629859905e-09
26.408 2.8247751614e-09
26.460 2.8316770516e-09
26.513 2.8599488565e-09
26.565 2.8492343325e-09
26.618 2.8322765425e-09
26.671 2.8488152849e-09
26.723 2.8919744815e-09
26.776 2.9445742770e-09
26.828 2.9486938480e-09
26.881 2.9326830830e-09
26.934 2.9145551126e-09
26.986 2.8970385492e-09
27.039 2.9142814278e-09
27.091 2.9317146806e-09
27.144 2.9514064253e-09
27.197 2.9582946465e-09
27.249 2.9386627839e-09
27.302 2.9180629310e-09
27.354 2.9153836276e-09
27.407 2.9334465577e-09
27.460 2.9185558845e-09
27.512 2.8956033351e-09
27.565 2.9137959078e-09
27.617 2.9250822940e-09
27.670 2.9211124817e-09
27.723 2.9601522955e-09
27.775 2.9918662908e-09
27.828 2.9671860981e-09
27.880 2.9542695152e-09
27.933 2.9614691926e-09
27.986 2.9335791180e-09
28.038 2.9429994718e-09
28.091 2.9884255567e-09
28.143 2.9935641355e-09
28.196 2.9773446557e-09
28.249 2.9383077710e-09
28.301 2.9628023004e-09
28.354 3.0472708253e-09
28.407 3.0896141785e-09
28.459 3.0286699798e-09
28.512 2.9729459270e-09
28.564 2.9838299959e-09
28.617 2.9526652854e-09
28.670 2.9357993005e-09
28.722 2.9641360509e-09
28.775 2.9933559842e-09
28.827 2.9960419555e-09
28.880 2.9612882778e-09
28.933 2.9197138982e-09
28.985 2.9434551496e-09
29.038 3.0310862779e-09
29.090 3.0420297534e-09
29.143 2.9790822331e-09
29.196 2.9441501957e-09
29.248 2.9507125079e-09
29.301 2.9778748778e-09
29.353 2.9764466403e-09
29.406 2.9429953549e-09
29.459 2.9175848007e-09
29.511 2.9366115273e-09
29.564 2.9737347706e-09
29.616 2.9743353864e-09
29.669 2.9743543173e-09
29.722 2.9967431714e-09
29.774 2.9988509151e-09
29.827 2.9874510044e-09
29.879 2.9749308483e-09
29.932 2.9631784245e-09
29.985 2.9495230493e-09
30.037 2.9371800248e-09
30.090 2.9447930101e-09
30.142 2.9545916762e-09
30.195 2.9733257508e-09
30.248 2.9559633151e-09
30.300 2.9255805691e-09
30.353 2.9052559561e-09
30.405 2.8487072108e-09
30.458 2.8589970606e-09
30.511 2.9100355853e-09
30.563 2.8942015631e-09
30.616 2.8948285991e-09
30.669 2.9091185517e-09
30.721 2.8892929147e-09
30.774 2.8992031114e-09
30.826 2.8903969610e-09
30.879 2.8783900770e-09
30.932 2.8992970479e-09
30.984 2.8690681141e-09
31.037 2.8006632842e-09
31.089 2.7615958440e-09
31.142 2.7616954878e-09
31.195 2.7337440612e-09
31.247 2.7537601795e-09
31.300 2.7994003672e-09
31.352 2.7573747990e-09
31.405 2.7428774229e-09
31.458 2.7733822040e-09
31.510 2.7800257016e-09
31.563 2.7493994557e-09
31.615 2.7037541386e-09
31.668 2.6785876241e-09
31.721 2.6875270052e-09
31.773 2.6986992153e-09
31.826 2.6687474869e-09
31.878 2.6397466349e-09
31.931 2.6411702217e-09
31.984 2.6305844882e-09
32.036 2.6075326884e-09
32.089 2.6015037353e-09
32.141 2.6001306826e-09
32.194 2.5740196551e-09
32.247 2.5246914994e-09
32.299 2.4941303354e-09
32.352 2.5151009028e-09
32.404 2.5215150279e-09
32.457 2.4826990738e-09
32.510 2.4709882972e-09
32.562 2.4632856168e-09
32.615 2.4226773916e-09
32.667 2.4271737427e-09
32.720 2.4554232953e-09
32.773 2.3937056188e-09
32.825 2.3095048038e-09
32.878 2.3072710799e-09
32.931 2.3284638245e-09
32.983 2.3205503753e-09
33.036 2.3095285052e-09
33.088 2.2989636700e-09
33.141 2.2969150922e-09
33.194 2.2827484117e-09
33.246 2.2532004885e-09
33.299 2.2328187594e-09
33.351 2.2185746103e-09
33.404 2.1998042516e-09
33.457 2.1739076633e-09
33.509 2.1655663827e-09
33.562 2.1548150000e-09
33.614 2.1684393226e-09
33.667 2.1818687479e-09
33.720 2.1521076367e-09
33.772 2.1349209001e-09
33.825 2.0789141607e-09
33.877 1.9993446598e-09
33.930 1.9971498167e-09
33.983 2.0143071121e-09
34.035 2.0073465170e-09
34.088 2.0000228991e-09
34.140 1.9874245902e-09
34.193 1.9698065728e-09
34.246 1.9750650318e-09
34.298 1.9516573293e-09
34.351 1.8793451498e-09
34.403 1.8831407731e-09
34.456 1.9111813672e-09
34.509 1.8979306189e-09
34.561 1.8803722657e-09
34.614 1.8304496640e-09
34.666 1.7898971540e-09
34.719 1.7863459360e-09
34.772 1.7579923636e-09
34.824 1.7413448837e-09
34.877 1.7562614676e-09
34.929 1.7438692230e-09
34.982 1.7317953601e-09
35.035 1.7501124610e-09
35.087 1.7527155730e-09
35.140 1.7104504480e-09
35.193 1.6498956753e-09
35.245 1.6216768415e-09
35.298 1.6272105079e-09
35.350 1.5974467626e-09
35.403 1.5934091257e-09
35.456 1.6324863585e-09
35.508 1.6139771564e-09
35.561 1.5719201987e-09
35.613 1.5460794404e-09
35.666 1.5577103131e-09
35.719 1.5701842323e-09
35.771 1.5319309577e-09
35.824 1.5214584462e-09
35.876 1.5280668508e-09
35.929 1.5131576185e-09
35.982 1.4702840452e-09
36.034 1.4304155424e-09
36.087 1.4595623321e-09
36.139 1.4853438484e-09
36.192 1.4584743941e-09
36.245 1.4222216656e-09
36.297 1.3985721141e-09
36.350 1.3692866747e-09
36.402 1.3280567094e-09
36.455 1.3235319022e-09
36.508 1.3384842195e-09
36.560 1.3339431685e-09
36.613 1.3507073522e-09
36.665 1.3597669456e-09
36.718 1.3468278886e-09
36.771 1.3664685326e-09
36.823 1.3940065367e-09
36.876 1.3974814671e-09
36.928 1.3996568926e-09
36.981 1.4034153231e-09
37.034 1.4123511788e-09
37.086 1.4458787166e-09
37.139 1.4637397072e-09
37.191 1.4530779988e-09
37.244 1.4327623031e-09
37.297 1.3818787663e-09
37.349 1.3573325931e-09
37.402 1.4082469619e-09
37.455 1.4374243237e-09
37.507 1.4307493472e-09
37.560 1.4748548720e-09
37.612 1.5060255721e-09
37.665 1.4747134660e-09
37.718 1.4519688158e-09
37.770 1.4492315512e-09
37.823 1.4825379945e-09
37.875 1.5224915872e-09
37.928 1.4927933490e-09
37.981 1.4780471106e-09
38.033 1.4910634560e-09
38.086 1.4662407812e-09
38.138 1.4624118778e-09
38.191 1.4769321724e-09
38.244 1.4960590657e-09
38.296 1.5312971264e-09
38.349 1.5350182933e-09
38.401 1.4966756706e-09
38.454 1.4665767970e-09
38.507 1.4964552622e-09
38.559 1.5269014821e-09
38.612 1.5217370068e-09
38.664 1.5621137523e-09
38.717 1.5973521205e-09
38.770 1.5830607661e-09
38.822 1.5567719096e-09
38.875 1.5244270553e-09
38.927 1.5307422902e-09
38.980 1.5612750898e-09
39.033 1.5687851628e-09
39.085 1.5531428307e-09
39.138 1.5783328311e-09
39.190 1.6188825917e-09
39.243 1.5664158199e-09
39.296 1.5263847429e-09
39.348 1.5839996718e-09
39.401 1.6153510924e-09
39.454 1.6033178514e-09
39.506 1.6274444706e-09
39.559 1.6440761356e-09
39.611 1.6400295364e-09
39.664 1.6551531539e-09
39.717 1.6495558132e-09
39.769 1.6378213239e-09
39.822 1.6573501324e-09
39.874 1.6613726066e-09
39.927 1.6992694702e-09
39.980 1.7301434603e-09
40.032 1.6820609311e-09
40.085 1.6763711891e-09
40.137 1.7033130156e-09
40.190 1.6826071289e-09
40.243 1.6284878179e-09
40.295 1.6252777834e-09
40.348 1.6379554584e-09
40.400 1.6234504058e-09
40.453 1.6469982913e-09
40.506 1.6996427891e-09
40.558 1.7321766881e-09
40.611 1.7491260859e-09
40.663 1.7590656016e-09
40.716 1.7203996324e-09
40.769 1.7201283882e-09
40.821 1.7468377879e-09
40.874 1.7168877231e-09
40.926 1.7056656762e-09
40.979 1.7209601552e-09
41.032 1.7388435369e-09
41.084 1.7606127300e-09
41.137 1.7453945935e-09
41.189 1.7224345549e-09
41.242 1.7264113386e-09
41.295 1.7157500692e-09
41.347 1.7154672595e-09
41.400 1.7599269900e-09
41.452 1.7928775631e-09
41.505 1.7793021540e-09
41.558 1.7574013605e-09
41.610 1.7295117854e-09
41.663 1.7316726546e-09
41.716 1.7632668222e-09
41.768 1.7666671611e-09
41.821 1.7778486472e-09
41.873 1.7782115810e-09
41.926 1.8097570460e-09
41.979 1.8655570761e-09
42.031 1.8429797130e-09
42.084 1.7963330041e-09
42.136 1.7722678728e-09
42.189 1.7774204807e-09
42.242 1.8102548640e-09
42.294 1.8392194927e-09
42.347 1.8120449966e-09
42.399 1.7853160903e-09
42.452 1.8082458829e-09
42.505 1.8082029447e-09
42.557 1.8178391159e-09
42.610 1.8229979801e-09
42.662 1.8277398206e-09
42.715 1.8835354740e-09
42.768 1.8733021644e-09
42.820 1.8250533762e-09
42.873 1.8453333996e-09
42.925 1.8533266594e-09
42.978 1.8296593194e-09
43.031 1.8090704587e-09
43.083 1.8332024446e-09
43.136 1.8729022381e-09
43.188 1.8791136921e-09
43.241 1.9036654418e-09
43.294 1.9313314471e-09
43.346 1.9252746413e-09
43.399 1.9102139378e-09
43.451 1.9062539152e-09
43.504 1.8789192584e-09
43.557 1.8501821096e-09
43.609 1.8523030406e-09
43.662 1.8880379341e-09
43.714 1.9095242383e-09
43.767 1.8706541474e-09
43.820 1.8969284793e-09
43.872 1.9468759621e-09
43.925 1.9106816042e-09
